pos x,pos y,vel x,vel y,angle,angleVel,contact_1,contact_2,action
-0.007577133364975452,1.408558964729309,-0.7674955129623413,-0.10496985167264938,0.008786764927208424,0.1738491952419281,0.0,0.0,3.0
-0.015079689212143421,1.4056168794631958,-0.7570501565933228,-0.13081388175487518,0.015491269528865814,0.13410338759422302,0.0,0.0,3.0
-0.02251720428466797,1.4020885229110718,-0.7488563656806946,-0.15687841176986694,0.020541109144687653,0.1010063886642456,0.0,0.0,3.0
-0.02987518347799778,1.3979690074920654,-0.7388699054718018,-0.18313270807266235,0.023582175374031067,0.06082691624760628,0.0,0.0,3.0
-0.03714494779706001,1.3932416439056396,-0.7278200387954712,-0.21012279391288757,0.024409176781773567,0.01654166914522648,0.0,0.0,3.0
-0.044339559972286224,1.3879077434539795,-0.7183831334114075,-0.23705483973026276,0.023347176611423492,-0.02124197408556938,0.0,0.0,3.0
-0.051447391510009766,1.3819736242294312,-0.7075091600418091,-0.26368311047554016,0.020106198266148567,-0.0648256316781044,0.0,0.0,3.0
-0.058490850031375885,1.3754322528839111,-0.6994348764419556,-0.2906739115715027,0.015252443961799145,-0.09708397090435028,0.0,0.0,3.0
-0.06544971466064453,1.368289828300476,-0.688833475112915,-0.31738021969795227,0.008277548477053642,-0.1395106017589569,0.0,0.0,1.0
-0.07247505336999893,1.3605408668518066,-0.6971820592880249,-0.3443776071071625,0.0029831419233232737,-0.1058981642127037,0.0,0.0,3.0
-0.07940912246704102,1.352197289466858,-0.685728132724762,-0.3708333373069763,-0.004604963585734367,-0.15177617967128754,0.0,0.0,1.0
-0.08640356361865997,1.3432481288909912,-0.6933119893074036,-0.39777106046676636,-0.010666195303201675,-0.12123558670282364,0.0,0.0,1.0
-0.09347772598266602,1.333691120147705,-0.7033188343048096,-0.4247855544090271,-0.014719787053763866,-0.08107899129390717,0.0,0.0,3.0
-0.10047845542430878,1.3235247135162354,-0.6941095590591431,-0.45191487669944763,-0.020619211718440056,-0.11799924075603485,0.0,0.0,1.0
-0.10753927379846573,1.3127598762512207,-0.701645016670227,-0.4785052239894867,-0.02500232867896557,-0.08767043799161911,0.0,0.0,3.0
-0.11451482772827148,1.3013941049575806,-0.6909698247909546,-0.5052669644355774,-0.03152300417423248,-0.1304251253604889,0.0,0.0,1.0
-0.12156839668750763,1.2894434928894043,-0.7007611989974976,-0.5312477350234985,-0.03606811538338661,-0.09091055393218994,0.0,0.0,2.0
-0.1286669671535492,1.277647852897644,-0.7049694657325745,-0.5243725180625916,-0.04091129079461098,-0.09687204658985138,0.0,0.0,2.0
-0.13590268790721893,1.2664319276809692,-0.7178823351860046,-0.498649537563324,-0.046546466648578644,-0.11271356046199799,0.0,0.0,2.0
-0.143140509724617,1.255528211593628,-0.7179437875747681,-0.4848056435585022,-0.052323415875434875,-0.11554950475692749,0.0,0.0,2.0
-0.1503642052412033,1.244912028312683,-0.7164582014083862,-0.47204339504241943,-0.058180078864097595,-0.11714343726634979,0.0,0.0,2.0
-0.15742865204811096,1.235002875328064,-0.7010430097579956,-0.440628319978714,-0.06353309005498886,-0.10707012563943863,0.0,0.0,2.0
-0.1645091027021408,1.2253469228744507,-0.7023937106132507,-0.4293994903564453,-0.0691291093826294,-0.11193017661571503,0.0,0.0,2.0
-0.17168931663036346,1.2163852453231812,-0.711628258228302,-0.39861002564430237,-0.07546452432870865,-0.12671957910060883,0.0,0.0,2.0
-0.17877988517284393,1.2074432373046875,-0.7029463648796082,-0.397746741771698,-0.08153020590543747,-0.12132462114095688,0.0,0.0,2.0
-0.18587712943553925,1.1987613439559937,-0.7037343382835388,-0.386197566986084,-0.08747130632400513,-0.11882983148097992,0.0,0.0,2.0
-0.1928541213274002,1.1908156871795654,-0.6915265321731567,-0.3535148799419403,-0.0935903936624527,-0.12238174676895142,0.0,0.0,2.0
-0.1996316909790039,1.183793306350708,-0.6720593571662903,-0.3124709725379944,-0.09922949969768524,-0.11278239637613297,0.0,0.0,1.0
-0.2064996212720871,1.17618989944458,-0.6834368705749512,-0.33816301822662354,-0.10256481915712357,-0.06670621037483215,0.0,0.0,2.0
-0.21321626007556915,1.1686469316482544,-0.6687934398651123,-0.33543911576271057,-0.10541249066591263,-0.05695361644029617,0.0,0.0,2.0
-0.2199709415435791,1.1614421606063843,-0.672116219997406,-0.3204522132873535,-0.10873901844024658,-0.06653039157390594,0.0,0.0,2.0
-0.22651024162769318,1.154526948928833,-0.6512773036956787,-0.3075401484966278,-0.11137322336435318,-0.05268413573503494,0.0,0.0,2.0
-0.23279723525047302,1.148223638534546,-0.6267982721328735,-0.2802862524986267,-0.11326339840888977,-0.037803709506988525,0.0,0.0,3.0
-0.2390124797821045,1.1413030624389648,-0.6177775859832764,-0.30786842107772827,-0.11698764562606812,-0.07448475062847137,0.0,0.0,2.0
-0.24507641792297363,1.1347815990447998,-0.6029840111732483,-0.29011300206184387,-0.1203763484954834,-0.0677739828824997,0.0,0.0,2.0
-0.25117844343185425,1.128641963005066,-0.606256365776062,-0.27319568395614624,-0.12430312484502792,-0.07853539288043976,0.0,0.0,2.0
-0.25733131170272827,1.123265027999878,-0.6105841398239136,-0.23937028646469116,-0.12898340821266174,-0.09360557794570923,0.0,0.0,2.0
-0.26332172751426697,1.1179912090301514,-0.5948073863983154,-0.23476997017860413,-0.1331973671913147,-0.08427906036376953,0.0,0.0,2.0
-0.26913031935691833,1.1129957437515259,-0.5771051049232483,-0.22236157953739166,-0.13693776726722717,-0.07480791956186295,0.0,0.0,2.0
-0.2748734951019287,1.108013391494751,-0.570602536201477,-0.22177867591381073,-0.14063625037670135,-0.07396925985813141,0.0,0.0,2.0
-0.28059664368629456,1.1038812398910522,-0.5680684447288513,-0.18405981361865997,-0.14486922323703766,-0.08465953171253204,0.0,0.0,2.0
-0.28612542152404785,1.1004602909088135,-0.5489441156387329,-0.15243777632713318,-0.14879631996154785,-0.078542061150074,0.0,0.0,2.0
-0.2917010188102722,1.097350835800171,-0.5529981851577759,-0.13865870237350464,-0.15335379540920258,-0.0911494642496109,0.0,0.0,2.0
-0.29719582200050354,1.0948662757873535,-0.5447105169296265,-0.11092332750558853,-0.15811829268932343,-0.09528983384370804,0.0,0.0,0.0
-0.3026905953884125,1.0917820930480957,-0.5447109341621399,-0.1375918686389923,-0.16288277506828308,-0.0952896848320961,0.0,0.0,2.0
-0.30811095237731934,1.0893436670303345,-0.5369933247566223,-0.10893753170967102,-0.1679302603006363,-0.10094983875751495,0.0,0.0,0.0
-0.3135313093662262,1.0863054990768433,-0.5369939208030701,-0.1356062889099121,-0.1729777455329895,-0.10094965994358063,0.0,0.0,2.0
-0.3186620771884918,1.0839678049087524,-0.5086649656295776,-0.10441894829273224,-0.1773960143327713,-0.08836536109447479,0.0,0.0,2.0
-0.32383042573928833,1.081799030303955,-0.511845052242279,-0.09699209779500961,-0.1824035495519638,-0.10015071928501129,0.0,0.0,2.0
-0.328756183385849,1.0795482397079468,-0.48840245604515076,-0.10055379569530487,-0.18659789860248566,-0.08388666808605194,0.0,0.0,2.0
-0.33360132575035095,1.0778629779815674,-0.4800416827201843,-0.0754682794213295,-0.19109193980693817,-0.08988077193498611,0.0,0.0,2.0
-0.3385131359100342,1.076222538948059,-0.48603326082229614,-0.07357826083898544,-0.19626562297344208,-0.10347376018762589,0.0,0.0,2.0
-0.343300998210907,1.0752309560775757,-0.47346386313438416,-0.044791121035814285,-0.20162783563137054,-0.10724425315856934,0.0,0.0,0.0
-0.3480888903141022,1.0736395120620728,-0.47346457839012146,-0.07146016508340836,-0.20699003338813782,-0.1072440892457962,0.0,0.0,2.0
-0.35264891386032104,1.0723708868026733,-0.4511285424232483,-0.05707358568906784,-0.21190571784973145,-0.09831372648477554,0.0,0.0,2.0
-0.35720521211624146,1.0715160369873047,-0.45012766122817993,-0.03879803419113159,-0.21746130287647247,-0.11111180484294891,0.0,0.0,2.0
-0.3617452085018158,1.0714116096496582,-0.4476923942565918,-0.005582382902503014,-0.22384107112884521,-0.12759527564048767,0.0,0.0,0.0
-0.36628517508506775,1.0707076787948608,-0.44769349694252014,-0.032252389937639236,-0.23022079467773438,-0.12759491801261902,0.0,0.0,2.0
-0.37072843313217163,1.0699433088302612,-0.43809032440185547,-0.034962188452482224,-0.2365446388721466,-0.1264771968126297,0.0,0.0,2.0
-0.37513160705566406,1.0694737434387207,-0.4336372911930084,-0.021959003061056137,-0.2433345764875412,-0.1357988715171814,0.0,0.0,2.0
-0.3794213831424713,1.0698890686035156,-0.4217258095741272,0.017244599759578705,-0.25071799755096436,-0.1476685255765915,0.0,0.0,0.0
-0.3837110996246338,1.0697051286697388,-0.4217275083065033,-0.009426518343389034,-0.2581014037132263,-0.14766797423362732,0.0,0.0,2.0
-0.38784295320510864,1.070317029953003,-0.4055767059326172,0.0258344579488039,-0.26587703824043274,-0.15551245212554932,0.0,0.0,0.0
-0.39197462797164917,1.0703295469284058,-0.40557876229286194,-0.0008371270960196853,-0.2736526131629944,-0.1555117815732956,0.0,0.0,2.0
-0.39597970247268677,1.0712026357650757,-0.39229434728622437,0.03723786026239395,-0.2820803225040436,-0.16855376958847046,0.0,0.0,2.0
-0.39987629652023315,1.0725446939468384,-0.38104885816574097,0.05795856937766075,-0.290943443775177,-0.17726214230060577,0.0,0.0,0.0
-0.4037727415561676,1.073287844657898,-0.3810516595840454,0.03128555789589882,-0.29980650544166565,-0.17726118862628937,0.0,0.0,2.0
-0.40741094946861267,1.0738929510116577,-0.355947881937027,0.025243842974305153,-0.3079494535923004,-0.1628587543964386,0.0,0.0,2.0
-0.4110439419746399,1.0747030973434448,-0.3547481298446655,0.03415779396891594,-0.3168211877346039,-0.1774352490901947,0.0,0.0,2.0
-0.4145326018333435,1.0757789611816406,-0.34015077352523804,0.045885469764471054,-0.3258901536464691,-0.18137958645820618,0.0,0.0,2.0
-0.4177158772945404,1.0771090984344482,-0.31010642647743225,0.057242169976234436,-0.33446410298347473,-0.17147907614707947,0.0,0.0,0.0
-0.4208989143371582,1.0778402090072632,-0.3101094365119934,0.030569646507501602,-0.34303802251815796,-0.17147818207740784,0.0,0.0,2.0
-0.42377033829689026,1.0785901546478271,-0.27965477108955383,0.03152816742658615,-0.35089683532714844,-0.15717637538909912,0.0,0.0,2.0
-0.42624980211257935,1.0796962976455688,-0.24113447964191437,0.04747748374938965,-0.3580668270587921,-0.14340011775493622,0.0,0.0,0.0
-0.4287291169166565,1.0802030563354492,-0.24113671481609344,0.020806757733225822,-0.3652368187904358,-0.14339959621429443,0.0,0.0,2.0
-0.4310656189918518,1.0809968709945679,-0.22653479874134064,0.03345019370317459,-0.37276649475097656,-0.15059347450733185,0.0,0.0,2.0
-0.4332844316959381,1.082387089729309,-0.21400070190429688,0.05970696732401848,-0.3811317980289459,-0.16730619966983795,0.0,0.0,0.0
-0.4355030059814453,1.083178162574768,-0.21400395035743713,0.03303481638431549,-0.3894970715045929,-0.1673053801059723,0.0,0.0,2.0
-0.43761834502220154,1.0843076705932617,-0.20309391617774963,0.047858741134405136,-0.3985186815261841,-0.18043214082717896,0.0,0.0,2.0
-0.43925318121910095,1.086214542388916,-0.15544959902763367,0.08246994018554688,-0.4071402847766876,-0.17243193089962006,0.0,0.0,0.0
-0.4408877491950989,1.087522268295288,-0.15545329451560974,0.0557975098490715,-0.4157618284225464,-0.17243103682994843,0.0,0.0,0.0
-0.4425221085548401,1.088231086730957,-0.1554570496082306,0.02912510372698307,-0.42438334226608276,-0.1724301427602768,0.0,0.0,2.0
-0.44358715415000916,1.0895768404006958,-0.09932344406843185,0.057620588690042496,-0.4321761131286621,-0.15585529804229736,0.0,0.0,0.0
-0.4446519911289215,1.0903230905532837,-0.09932663291692734,0.030949268490076065,-0.43996885418891907,-0.15585467219352722,0.0,0.0,0.0
-0.4457165598869324,1.090470314025879,-0.0993298813700676,0.004277966450899839,-0.44776156544685364,-0.1558540165424347,0.0,0.0,2.0
-0.446220338344574,1.0912573337554932,-0.04389156028628349,0.03289124742150307,-0.4548715353012085,-0.14219923317432404,0.0,0.0,0.0
-0.44672393798828125,1.0914452075958252,-0.04389434680342674,0.00622074818238616,-0.46198147535324097,-0.14219869673252106,0.0,0.0,2.0
-0.4467509686946869,1.091952919960022,0.003096803557127714,0.020624371245503426,-0.468382865190506,-0.12802858650684357,0.0,0.0,0.0
-0.446777880191803,1.0918608903884888,0.003094478975981474,-0.006045379675924778,-0.474784255027771,-0.12802819907665253,0.0,0.0,1.0
-0.4468657970428467,1.0912175178527832,-0.004700317047536373,-0.030012037605047226,-0.47933095693588257,-0.09093386679887772,0.0,0.0,2.0
-0.4467449188232422,1.090895414352417,0.016577115282416344,-0.015876274555921555,-0.4843306839466095,-0.0999947339296341,0.0,0.0,1.0
-0.44671040773391724,1.0900325775146484,0.005665934644639492,-0.03913084790110588,-0.4867967665195465,-0.04932181164622307,0.0,0.0,1.0
-0.44672679901123047,1.088623046875,-0.0009399909758940339,-0.062891885638237,-0.4875797629356384,-0.01565982587635517,0.0,0.0,2.0
-0.4465285837650299,1.0872946977615356,0.020616203546524048,-0.05931781977415085,-0.4884696304798126,-0.01779726706445217,0.0,0.0,1.0
-0.4464099407196045,1.0854310989379883,0.010474903509020805,-0.08234075456857681,-0.48692017793655396,0.030988996848464012,0.0,0.0,2.0
-0.44618916511535645,1.0836862325668335,0.02124147117137909,-0.0772542804479599,-0.48598986864089966,0.018606284633278847,0.0,0.0,0.0
-0.4459683895111084,1.0813413858413696,0.02124141901731491,-0.10392101109027863,-0.48505955934524536,0.018606288358569145,0.0,0.0,2.0
-0.4453260898590088,1.0790592432022095,0.06270485371351242,-0.10089310258626938,-0.48335742950439453,0.0340421088039875,0.0,0.0,1.0
-0.4447503089904785,1.0762345790863037,0.054190319031476974,-0.12436258047819138,-0.47958409786224365,0.07546651363372803,0.0,0.0,1.0
-0.4442497789859772,1.0728564262390137,0.044713955372571945,-0.14830277860164642,-0.47365230321884155,0.11863581836223602,0.0,0.0,0.0
-0.4437491297721863,1.0688786506652832,0.04471191018819809,-0.17497208714485168,-0.46772053837776184,0.11863555014133453,0.0,0.0,2.0
-0.442955881357193,1.06575345993042,0.07468821108341217,-0.13734178245067596,-0.462599515914917,0.10242003202438354,0.0,0.0,1.0
-0.44224676489830017,1.0620852708816528,0.06402932107448578,-0.16076186299324036,-0.4550211727619171,0.15156686305999756,0.0,0.0,0.0
-0.44153743982315063,1.0578176975250244,0.06402610242366791,-0.1874329000711441,-0.4474428594112396,0.151566281914711,0.0,0.0,0.0
-0.4408278465270996,1.0529509782791138,0.06402293592691422,-0.21410393714904785,-0.4398645758628845,0.15156564116477966,0.0,0.0,2.0
-0.4398764967918396,1.0484906435012817,0.08845900744199753,-0.19615794718265533,-0.43259572982788086,0.14537669718265533,0.0,0.0,0.0
-0.43892496824264526,1.043431043624878,0.0884561836719513,-0.22282862663269043,-0.4253269135951996,0.14537614583969116,0.0,0.0,0.0
-0.4379732608795166,1.0377721786499023,0.08845340460538864,-0.24949932098388672,-0.4180581271648407,0.14537562429904938,0.0,0.0,2.0
-0.4368111491203308,1.0320496559143066,0.10926534980535507,-0.2522987723350525,-0.410571813583374,0.1497269868850708,0.0,0.0,0.0
-0.4356488585472107,1.0257277488708496,0.10926248878240585,-0.27896976470947266,-0.40308550000190735,0.14972642064094543,0.0,0.0,0.0
-0.434486448764801,1.0188066959381104,0.10925967991352081,-0.3056407570838928,-0.3955991864204407,0.14972583949565887,0.0,0.0,2.0
-0.432816743850708,1.0126296281814575,0.1594245731830597,-0.27246716618537903,-0.38754525780677795,0.1610783338546753,0.0,0.0,0.0
-0.43114686012268066,1.005853295326233,0.1594214290380478,-0.2991389334201813,-0.37949138879776,0.16107763350009918,0.0,0.0,0.0
-0.429476797580719,0.998477578163147,0.15941835939884186,-0.32581064105033875,-0.37143754959106445,0.16107691824436188,0.0,0.0,0.0
-0.42780646681785583,0.9905025959014893,0.1594153344631195,-0.352482408285141,-0.36338376998901367,0.16107618808746338,0.0,0.0,0.0
-0.4261360168457031,0.9819287061691284,0.15941239893436432,-0.37915417551994324,-0.3553299903869629,0.16107550263404846,0.0,0.0,0.0
-0.42446526885032654,0.9727553725242615,0.1594095081090927,-0.4058259427547455,-0.3472762703895569,0.16107478737831116,0.0,0.0,2.0
-0.42277851700782776,0.9636989831924438,0.16164419054985046,-0.40082821249961853,-0.3399043679237366,0.14743776619434357,0.0,0.0,2.0
-0.42091092467308044,0.9555214643478394,0.180415540933609,-0.36196234822273254,-0.33326318860054016,0.1328236162662506,0.0,0.0,1.0
-0.41911476850509644,0.9467857480049133,0.17132523655891418,-0.38636910915374756,-0.3246223032474518,0.17281797528266907,0.0,0.0,0.0
-0.4173184931278229,0.9374509453773499,0.17132218182086945,-0.41304171085357666,-0.3159814476966858,0.17281708121299744,0.0,0.0,2.0
-0.41550761461257935,0.9284574389457703,0.1735628843307495,-0.3980894684791565,-0.3081778585910797,0.15607157349586487,0.0,0.0,0.0
-0.4136965870857239,0.918864905834198,0.1735605150461197,-0.42476099729537964,-0.300374299287796,0.15607091784477234,0.0,0.0,2.0
-0.4115417003631592,0.9098386168479919,0.20748741924762726,-0.3995397686958313,-0.2921157479286194,0.16517098248004913,0.0,0.0,0.0
-0.40938663482666016,0.9002133011817932,0.2074849158525467,-0.426211953163147,-0.28385722637176514,0.16517019271850586,0.0,0.0,0.0
-0.4072313904762268,0.8899887204170227,0.2074824571609497,-0.45288413763046265,-0.27559876441955566,0.16516941785812378,0.0,0.0,0.0
-0.40507596731185913,0.8791648745536804,0.2074800729751587,-0.4795563817024231,-0.2673403322696686,0.1651686578989029,0.0,0.0,2.0
-0.4026685655117035,0.8682155013084412,0.231940358877182,-0.4850670099258423,-0.2583443820476532,0.17991903424263,0.0,0.0,2.0
-0.39994874596595764,0.8580751419067383,0.2628818452358246,-0.44910189509391785,-0.2490614652633667,0.18565818667411804,0.0,0.0,0.0
-0.3972287178039551,0.8473361730575562,0.26287907361984253,-0.4757755696773529,-0.23977860808372498,0.18565711379051208,0.0,0.0,0.0
-0.3945085108280182,0.8359982371330261,0.2628764510154724,-0.5024493336677551,-0.23049581050872803,0.18565604090690613,0.0,0.0,2.0
-0.39149150252342224,0.8252370357513428,0.29203253984451294,-0.4767913222312927,-0.22070591151714325,0.19579800963401794,0.0,0.0,0.0
-0.38847431540489197,0.8138773441314697,0.29202979803085327,-0.5034658908843994,-0.21091607213020325,0.19579675793647766,0.0,0.0,2.0
-0.3850788474082947,0.8033027052879333,0.32903197407722473,-0.4685179889202118,-0.20030976831912994,0.2121259868144989,0.0,0.0,0.0
-0.38168320059776306,0.7921295762062073,0.32902905344963074,-0.4951939582824707,-0.1897035390138626,0.212124302983284,0.0,0.0,0.0
-0.3782873749732971,0.7803580164909363,0.3290262818336487,-0.5218698978424072,-0.17909741401672363,0.21212263405323029,0.0,0.0,2.0
-0.37460869550704956,0.7688509821891785,0.35647156834602356,-0.5100934505462646,-0.16767974197864532,0.2283533364534378,0.0,0.0,0.0
-0.37092986702919006,0.7567455768585205,0.35646870732307434,-0.5367709994316101,-0.15626218914985657,0.22835126519203186,0.0,0.0,2.0
-0.367067813873291,0.7446665167808533,0.3742322623729706,-0.535635769367218,-0.1443084478378296,0.2390747368335724,0.0,0.0,2.0
-0.36323851346969604,0.7329956889152527,0.3715314269065857,-0.5176387429237366,-0.13295137882232666,0.22714130580425262,0.0,0.0,2.0
-0.3594455122947693,0.722133219242096,0.3686378598213196,-0.48186641931533813,-0.12233519554138184,0.21232371032238007,0.0,0.0,0.0
-0.355652391910553,0.7106720805168152,0.36863604187965393,-0.5085424780845642,-0.11171909421682358,0.21232204139232635,0.0,0.0,2.0
-0.35193759202957153,0.699786901473999,0.3615591526031494,-0.48307308554649353,-0.10186661034822464,0.19704952836036682,0.0,0.0,2.0
-0.3479796051979065,0.6893243193626404,0.3850662112236023,-0.4643095135688782,-0.0912160724401474,0.21301046013832092,0.0,0.0,2.0
-0.34402045607566833,0.6788828372955322,0.38533565402030945,-0.46345964074134827,-0.08073479682207108,0.20962552726268768,0.0,0.0,2.0
-0.33990544080734253,0.6692240238189697,0.4005320072174072,-0.4287283718585968,-0.06987898796796799,0.21711602807044983,0.0,0.0,3.0
-0.3356982171535492,0.6589505076408386,0.41211098432540894,-0.4562220275402069,-0.0613582618534565,0.17041459679603577,0.0,0.0,2.0
