pos x,pos y,vel x,vel y,angle,angleVel,contact_1,contact_2,action
-0.007972526364028454,1.419762372970581,-0.8075564503669739,0.3929634690284729,0.009245049208402634,0.18292361497879028,0.0,0.0,3.0
-0.01585836336016655,1.4280389547348022,-0.7955047488212585,0.36779558658599854,0.01608443632721901,0.1368003487586975,0.0,0.0,3.0
-0.023679733276367188,1.435711145401001,-0.7874037027359009,0.34091171622276306,0.0212925523519516,0.10417231172323227,0.0,0.0,3.0
-0.03143320232629776,1.442796230316162,-0.7788615226745605,0.31484735012054443,0.024779850617051125,0.06975215673446655,0.0,0.0,3.0
-0.03912363201379776,1.4492734670639038,-0.7709788680076599,0.2878381013870239,0.026688024401664734,0.03816710039973259,0.0,0.0,3.0
-0.04673624038696289,1.455162763595581,-0.7611982822418213,0.26175034046173096,0.026628633961081505,-0.00118777877651155,0.0,0.0,3.0
-0.05428924411535263,1.4604582786560059,-0.7537255883216858,0.23537828028202057,0.02506932057440281,-0.03118942677974701,0.0,0.0,0.0
-0.06184225156903267,1.4651535749435425,-0.7537199258804321,0.2087099701166153,0.023510465398430824,-0.031180137768387794,0.0,0.0,0.0
-0.06939516216516495,1.4692490100860596,-0.7537151575088501,0.18204151093959808,0.021951524540781975,-0.031182024627923965,0.0,0.0,0.0
-0.07694806903600693,1.4727444648742676,-0.7537106275558472,0.15537306666374207,0.020392801612615585,-0.031177327036857605,0.0,0.0,0.0
-0.08450088649988174,1.475639820098877,-0.7537059187889099,0.12870457768440247,0.018834339454770088,-0.031172435730695724,0.0,0.0,0.0
-0.09205369651317596,1.4779351949691772,-0.7537012696266174,0.1020360141992569,0.017276087775826454,-0.031167611479759216,0.0,0.0,0.0
-0.09960641711950302,1.479630470275879,-0.753696620464325,0.07536742836236954,0.015718089416623116,-0.03116287663578987,0.0,0.0,0.0
-0.10715913772583008,1.480725884437561,-0.7536920309066772,0.048698790371418,0.014160317368805408,-0.03115810453891754,0.0,0.0,0.0
-0.11471176147460938,1.4812211990356445,-0.7536874413490295,0.022030115127563477,0.012602807953953743,-0.031153419986367226,0.0,0.0,0.0
-0.12226438522338867,1.481116533279419,-0.7536829113960266,-0.004638628102838993,0.01104549691081047,-0.03114871121942997,0.0,0.0,3.0
-0.12972792983055115,1.4804158210754395,-0.7425313591957092,-0.03111789934337139,0.007253922522068024,-0.07583855092525482,0.0,0.0,3.0
-0.13713034987449646,1.4791090488433838,-0.7348569631576538,-0.05806737765669823,0.00192939059343189,-0.10650013387203217,0.0,0.0,0.0
-0.1445326805114746,1.4772025346755981,-0.7348405718803406,-0.08473813533782959,-0.0033941653091460466,-0.10648081451654434,0.0,0.0,0.0
-0.15193471312522888,1.474696397781372,-0.734825074672699,-0.11140908300876617,-0.008717224933207035,-0.10647080093622208,0.0,0.0,3.0
-0.15925569832324982,1.4715936183929443,-0.7246614694595337,-0.13795796036720276,-0.016072332859039307,-0.14711511135101318,0.0,0.0,0.0
-0.16657647490501404,1.4678916931152344,-0.7246391773223877,-0.16463126242160797,-0.023425472900271416,-0.14707618951797485,0.0,0.0,3.0
-0.17383651435375214,1.4635987281799316,-0.7170340418815613,-0.19095934927463531,-0.032293953001499176,-0.17738553881645203,0.0,0.0,1.0
-0.18117323517799377,1.4587023258209229,-0.7266596555709839,-0.21779058873653412,-0.039230041205883026,-0.13873423635959625,0.0,0.0,3.0
-0.18844452500343323,1.4532071352005005,-0.7184642553329468,-0.2444780468940735,-0.04780302196741104,-0.17147482931613922,0.0,0.0,1.0
-0.19578056037425995,1.4471113681793213,-0.7271685600280762,-0.27114275097846985,-0.054175447672605515,-0.127456933259964,0.0,0.0,3.0
-0.20304656028747559,1.4403891563415527,-0.7177718877792358,-0.2991112768650055,-0.0628996193408966,-0.1744835078716278,0.0,0.0,1.0
-0.2104070633649826,1.4330785274505615,-0.7296454906463623,-0.32519420981407166,-0.06923673301935196,-0.12674212455749512,0.0,0.0,3.0
-0.21770009398460388,1.4251651763916016,-0.7211862802505493,-0.352104514837265,-0.07727013528347015,-0.1606682538986206,0.0,0.0,3.0
-0.22489777207374573,1.4166377782821655,-0.7092190980911255,-0.37957513332366943,-0.08771634846925735,-0.2089240849018097,0.0,0.0,1.0
-0.23217082023620605,1.4075297117233276,-0.7187080383300781,-0.405333012342453,-0.09623928368091583,-0.1704588532447815,0.0,0.0,3.0
-0.23936724662780762,1.3978090286254883,-0.7090845704078674,-0.43275120854377747,-0.10670771449804306,-0.20936879515647888,0.0,0.0,1.0
-0.24664291739463806,1.3874945640563965,-0.7190346717834473,-0.4590551555156708,-0.11518018692731857,-0.16944941878318787,0.0,0.0,2.0
-0.25381749868392944,1.3771777153015137,-0.7091891765594482,-0.45918288826942444,-0.12340008467435837,-0.16439810395240784,0.0,0.0,2.0
-0.2607552409172058,1.3673315048217773,-0.6861982345581055,-0.438260555267334,-0.13093942403793335,-0.1507866084575653,0.0,0.0,2.0
-0.26774102449417114,1.3576711416244507,-0.6904693841934204,-0.43008682131767273,-0.13901488482952118,-0.16150926053524017,0.0,0.0,2.0
-0.27475816011428833,1.3487646579742432,-0.6928945779800415,-0.39669305086135864,-0.14781199395656586,-0.17594227194786072,0.0,0.0,2.0
-0.28171810507774353,1.3405678272247314,-0.6868501901626587,-0.365235835313797,-0.15694162249565125,-0.18259268999099731,0.0,0.0,1.0
-0.288750022649765,1.3317952156066895,-0.6959346532821655,-0.39068087935447693,-0.1642019897699356,-0.1452074497938156,0.0,0.0,2.0
-0.2958553731441498,1.32302987575531,-0.7026447057723999,-0.39046117663383484,-0.17210300266742706,-0.15801995992660522,0.0,0.0,2.0
-0.30290308594703674,1.3144527673721313,-0.6967376470565796,-0.3821575939655304,-0.18015727400779724,-0.16108527779579163,0.0,0.0,2.0
-0.3098275065422058,1.306217908859253,-0.6844609975814819,-0.3669838309288025,-0.18817099928855896,-0.16027456521987915,0.0,0.0,2.0
-0.31663089990615845,1.2987576723098755,-0.6721293330192566,-0.33262690901756287,-0.19642740488052368,-0.16512814164161682,0.0,0.0,2.0
-0.32334741950035095,1.2918199300765991,-0.6631743311882019,-0.3094935715198517,-0.20496468245983124,-0.17074567079544067,0.0,0.0,2.0
-0.33006778359413147,1.2848856449127197,-0.6631854176521301,-0.3094486594200134,-0.21389782428741455,-0.1786632388830185,0.0,0.0,2.0
-0.3365793824195862,1.278761625289917,-0.6423434019088745,-0.27348092198371887,-0.22281016409397125,-0.17824682593345642,0.0,0.0,2.0
-0.3429803252220154,1.2731525897979736,-0.6310459971427917,-0.2506815791130066,-0.23198308050632477,-0.1834585964679718,0.0,0.0,2.0
-0.34909382462501526,1.2679580450057983,-0.6028779149055481,-0.23223188519477844,-0.24058088660240173,-0.17195618152618408,0.0,0.0,2.0
-0.3550798296928406,1.2626793384552002,-0.5903388261795044,-0.2359810471534729,-0.2489852011203766,-0.16808626055717468,0.0,0.0,2.0
-0.3609728217124939,1.2577383518218994,-0.5807695984840393,-0.22107331454753876,-0.2576848268508911,-0.17399241030216217,0.0,0.0,2.0
-0.3666198253631592,1.2534239292144775,-0.5563198328018188,-0.19325357675552368,-0.2662477195262909,-0.1712581217288971,0.0,0.0,2.0
-0.3721559941768646,1.2491459846496582,-0.5452359914779663,-0.1916738599538803,-0.27483251690864563,-0.17169617116451263,0.0,0.0,2.0
-0.3774488568305969,1.2449654340744019,-0.5214105248451233,-0.18730561435222626,-0.2829177677631378,-0.16170527040958405,0.0,0.0,2.0
-0.3825019299983978,1.241652488708496,-0.4972592890262604,-0.1488221138715744,-0.291201114654541,-0.16566692292690277,0.0,0.0,2.0
-0.3872763216495514,1.2392561435699463,-0.46930915117263794,-0.10815403610467911,-0.2995920777320862,-0.16781941056251526,0.0,0.0,2.0
-0.39169177412986755,1.2373638153076172,-0.43399280309677124,-0.08567644655704498,-0.30740147829055786,-0.15618808567523956,0.0,0.0,2.0
-0.39579492807388306,1.2357486486434937,-0.4033243656158447,-0.07328811287879944,-0.31465277075767517,-0.14502593874931335,0.0,0.0,2.0
-0.39983969926834106,1.2346166372299194,-0.39675331115722656,-0.052007220685482025,-0.3226802945137024,-0.16055038571357727,0.0,0.0,2.0
-0.4037400186061859,1.2343409061431885,-0.3815727233886719,-0.014174681156873703,-0.3314972221851349,-0.1763382852077484,0.0,0.0,2.0
-0.40745577216148376,1.2350176572799683,-0.36242547631263733,0.027941258624196053,-0.3410642743110657,-0.1913410872220993,0.0,0.0,2.0
-0.4107040762901306,1.236406683921814,-0.31636613607406616,0.059705138206481934,-0.34994781017303467,-0.1776704490184784,0.0,0.0,0.0
-0.41395220160484314,1.237196922302246,-0.31636950373649597,0.03303221985697746,-0.3588312864303589,-0.1776694804430008,0.0,0.0,2.0
-0.41690048575401306,1.2384192943572998,-0.28658920526504517,0.05223933234810829,-0.36753422021865845,-0.17405882477760315,0.0,0.0,0.0
-0.41984859108924866,1.2390425205230713,-0.28659260272979736,0.025566700845956802,-0.3762371242046356,-0.17405790090560913,0.0,0.0,2.0
-0.42246437072753906,1.2397836446762085,-0.25397470593452454,0.030911101028323174,-0.38432425260543823,-0.1617426872253418,0.0,0.0,2.0
-0.42470628023147583,1.2410125732421875,-0.21693401038646698,0.0526413731276989,-0.3920658826828003,-0.15483245253562927,0.0,0.0,0.0
-0.42694801092147827,1.2416423559188843,-0.2169368714094162,0.025970036163926125,-0.39980748295783997,-0.15483179688453674,0.0,0.0,2.0
-0.42902570962905884,1.242761254310608,-0.19999173283576965,0.04751468077301979,-0.40815699100494385,-0.16699030995368958,0.0,0.0,0.0
-0.4311031401157379,1.2432810068130493,-0.19999518990516663,0.020842617377638817,-0.41650646924972534,-0.1669894903898239,0.0,0.0,2.0
-0.43288272619247437,1.243833303451538,-0.17067663371562958,0.02237004041671753,-0.42438527941703796,-0.15757599472999573,0.0,0.0,2.0
-0.43460044264793396,1.2446448802947998,-0.16374613344669342,0.03361741825938225,-0.43309324979782104,-0.17415954172611237,0.0,0.0,0.0
-0.4363178610801697,1.2448569536209106,-0.16375009715557098,0.006944944150745869,-0.44180119037628174,-0.17415861785411835,0.0,0.0,2.0
-0.4377618730068207,1.2452857494354248,-0.13650238513946533,0.0165358018130064,-0.4504421353340149,-0.17281892895698547,0.0,0.0,2.0
-0.4391060471534729,1.246051549911499,-0.12579140067100525,0.03122643008828163,-0.4599250257015228,-0.18965797126293182,0.0,0.0,0.0
-0.44044986367225647,1.2462186813354492,-0.12579640746116638,0.004552963189780712,-0.469407856464386,-0.1896567940711975,0.0,0.0,2.0
-0.4414812922477722,1.246338963508606,-0.09506146609783173,0.002588193863630295,-0.47837409377098083,-0.17932473123073578,0.0,0.0,1.0
-0.4425676763057709,1.2458974123001099,-0.10203585773706436,-0.021933428943157196,-0.48572733998298645,-0.14706508815288544,0.0,0.0,2.0
-0.44319528341293335,1.2460474967956543,-0.05633050948381424,0.004389316774904728,-0.49291980266571045,-0.14384925365447998,0.0,0.0,1.0
-0.4438958168029785,1.2456635236740112,-0.06569547951221466,-0.01863228529691696,-0.49780815839767456,-0.09776739776134491,0.0,0.0,1.0
-0.44464951753616333,1.2447288036346436,-0.07252644747495651,-0.04257131740450859,-0.5010023713111877,-0.06388373672962189,0.0,0.0,1.0
-0.4454728662967682,1.2432496547698975,-0.0813903659582138,-0.066081203520298,-0.5020669102668762,-0.02129123918712139,0.0,0.0,2.0
-0.4461614489555359,1.2416632175445557,-0.0677497535943985,-0.07091717422008514,-0.5033157467842102,-0.02497655153274536,0.0,0.0,1.0
-0.44690269231796265,1.2395168542861938,-0.07442730665206909,-0.09528758376836777,-0.5029749274253845,0.006816697306931019,0.0,0.0,2.0
-0.4474411606788635,1.2373286485671997,-0.05414094775915146,-0.09714977443218231,-0.5026417970657349,0.006662506610155106,0.0,0.0,1.0
-0.4480415880680084,1.2345967292785645,-0.06208350509405136,-0.12066446244716644,-0.5003411173820496,0.04601416364312172,0.0,0.0,2.0
-0.4482268691062927,1.2323510646820068,-0.020646126940846443,-0.09904150664806366,-0.49796217679977417,0.047578684985637665,0.0,0.0,1.0
-0.44846969842910767,1.229566216468811,-0.02810252271592617,-0.12239429354667664,-0.4936729967594147,0.08578334003686905,0.0,0.0,1.0
-0.44879040122032166,1.226235270500183,-0.03794601187109947,-0.14594274759292603,-0.4870900511741638,0.13165871798992157,0.0,0.0,2.0
-0.44896402955055237,1.2228511571884155,-0.023093415424227715,-0.1483960896730423,-0.4806949198246002,0.12790228426456451,0.0,0.0,1.0
-0.44922199845314026,1.2189358472824097,-0.03388480842113495,-0.17123597860336304,-0.4717150628566742,0.1795966923236847,0.0,0.0,2.0
-0.4489539563655853,1.2157838344573975,0.018448125571012497,-0.13727828860282898,-0.46247825026512146,0.1847359836101532,0.0,0.0,1.0
-0.44874638319015503,1.2120864391326904,0.010643551126122475,-0.1610027700662613,-0.45134639739990234,0.22263681888580322,0.0,0.0,1.0
-0.4486214518547058,1.2078417539596558,0.00014248154184315354,-0.18472151458263397,-0.43783658742904663,0.2701960802078247,0.0,0.0,2.0
-0.4483126997947693,1.2041292190551758,0.019094601273536682,-0.16138938069343567,-0.4250364303588867,0.25600337982177734,0.0,0.0,1.0
-0.4480818212032318,1.1998801231384277,0.009061566554009914,-0.18468856811523438,-0.40988078713417053,0.30311283469200134,0.0,0.0,2.0
-0.44746118783950806,1.1958258152008057,0.04730760306119919,-0.17600585520267487,-0.39404886960983276,0.31663864850997925,0.0,0.0,1.0
-0.4468953609466553,1.1912040710449219,0.040280718356370926,-0.2009851187467575,-0.37667274475097656,0.34752243757247925,0.0,0.0,2.0
-0.44615817070007324,1.1871799230575562,0.057889241725206375,-0.1747695803642273,-0.35991767048835754,0.3351013660430908,0.0,0.0,3.0
-0.445340096950531,1.182511568069458,0.06801878660917282,-0.2040916532278061,-0.34541431069374084,0.29006704688072205,0.0,0.0,1.0
-0.44458261132240295,1.1772916316986084,0.060181450098752975,-0.2283497303724289,-0.3291255533695221,0.3257752060890198,0.0,0.0,2.0
-0.44362586736679077,1.1728112697601318,0.0804639607667923,-0.19575391709804535,-0.31329938769340515,0.31652340292930603,0.0,0.0,3.0
-0.44259515404701233,1.1676979064941406,0.08971937000751495,-0.22443561255931854,-0.299470990896225,0.2765687108039856,0.0,0.0,3.0
-0.44148755073547363,1.1619459390640259,0.09938518702983856,-0.25334328413009644,-0.28774186968803406,0.2345828264951706,0.0,0.0,1.0
-0.44045400619506836,1.1556313037872314,0.08997954428195953,-0.2780747413635254,-0.2739989459514618,0.2748584449291229,0.0,0.0,2.0
-0.4394151568412781,1.1493009328842163,0.09091562032699585,-0.278972327709198,-0.2607195973396301,0.2655872404575348,0.0,0.0,2.0
-0.4380775988101959,1.1430950164794922,0.11999617516994476,-0.2734282612800598,-0.24668169021606445,0.2807580530643463,0.0,0.0,3.0
-0.43666377663612366,1.136256217956543,0.12957502901554108,-0.3020114600658417,-0.23468086123466492,0.24001672863960266,0.0,0.0,3.0
-0.4351803660392761,1.1287915706634521,0.13831156492233276,-0.3301995098590851,-0.22451530396938324,0.20331139862537384,0.0,0.0,2.0
-0.4336150586605072,1.1215447187423706,0.14666813611984253,-0.32061487436294556,-0.21454167366027832,0.19947268068790436,0.0,0.0,1.0
-0.432135671377182,1.1137380599975586,0.13578003644943237,-0.34524068236351013,-0.2022731751203537,0.24537010490894318,0.0,0.0,3.0
-0.430574506521225,1.105298399925232,0.14607468247413635,-0.3737557828426361,-0.19216467440128326,0.20217010378837585,0.0,0.0,2.0
-0.4289136528968811,1.097815990447998,0.15648800134658813,-0.331335186958313,-0.1825200766324997,0.19289204478263855,0.0,0.0,3.0
-0.427185595035553,1.0897043943405151,0.16495727002620697,-0.3595733344554901,-0.17465126514434814,0.15737615525722504,0.0,0.0,1.0
-0.425516277551651,1.0810058116912842,0.1575767695903778,-0.3855348527431488,-0.16528065502643585,0.18741223216056824,0.0,0.0,3.0
-0.4237571358680725,1.0716928243637085,0.16882266104221344,-0.41313713788986206,-0.15818947553634644,0.14182350039482117,0.0,0.0,2.0
-0.4216877818107605,1.06302011013031,0.19902099668979645,-0.384633868932724,-0.15028421580791473,0.15810561180114746,0.0,0.0,3.0
-0.4195459485054016,1.0537346601486206,0.20811662077903748,-0.4120861291885376,-0.14422427117824554,0.12119879573583603,0.0,0.0,1.0
-0.4174814820289612,1.0438671112060547,0.19838541746139526,-0.4377935826778412,-0.13618367910385132,0.16081172227859497,0.0,0.0,2.0
-0.4153296947479248,1.0348961353302002,0.20732831954956055,-0.398021399974823,-0.12836933135986328,0.15628692507743835,0.0,0.0,3.0
-0.4131084084510803,1.0253099203109741,0.21607160568237305,-0.4255399703979492,-0.12233272194862366,0.12073208391666412,0.0,0.0,1.0
-0.4109798073768616,1.0151530504226685,0.20438416302204132,-0.45074233412742615,-0.11390542984008789,0.1685456484556198,0.0,0.0,2.0
-0.4088135361671448,1.0059335231781006,0.20850595831871033,-0.4091598689556122,-0.10584361106157303,0.1612364947795868,0.0,0.0,3.0
-0.40655088424682617,0.9961115121841431,0.22057633101940155,-0.4361482262611389,-0.10019819438457489,0.11290828138589859,0.0,0.0,2.0
-0.4043484330177307,0.9864306449890137,0.2150641232728958,-0.42991727590560913,-0.09505799412727356,0.10280394554138184,0.0,0.0,2.0
-0.40198174118995667,0.9770292043685913,0.23098115622997284,-0.41749247908592224,-0.08941919356584549,0.112776018679142,0.0,0.0,3.0
-0.3995490074157715,0.9670088887214661,0.23929238319396973,-0.4451092481613159,-0.0854702740907669,0.0789782926440239,0.0,0.0,1.0
-0.3972005248069763,0.9564051032066345,0.22870223224163055,-0.470946341753006,-0.07938152551651001,0.12177499383687973,0.0,0.0,2.0
-0.394835889339447,0.9459158778190613,0.23041598498821259,-0.4658847451210022,-0.0733928307890892,0.11977370828390121,0.0,0.0,2.0
-0.392549991607666,0.9358852505683899,0.2231469601392746,-0.44554221630096436,-0.06800626218318939,0.10773137956857681,0.0,0.0,2.0
-0.3901546597480774,0.9259471893310547,0.23372778296470642,-0.44144153594970703,-0.062259774655103683,0.11492971330881119,0.0,0.0,2.0
-0.3877219259738922,0.9165616035461426,0.2375112771987915,-0.4169096350669861,-0.056561727076768875,0.11396094411611557,0.0,0.0,3.0
-0.38521867990493774,0.9065815210342407,0.24633798003196716,-0.44341638684272766,-0.05262501910328865,0.07873426377773285,0.0,0.0,2.0
-0.38272157311439514,0.8973126411437988,0.24596956372261047,-0.4118202030658722,-0.04892884939908981,0.07392343878746033,0.0,0.0,2.0
-0.38035449385643005,0.8885536193847656,0.23374760150909424,-0.3891933560371399,-0.04599980637431145,0.058580826967954636,0.0,0.0,1.0
-0.37807750701904297,0.8791933655738831,0.22244422137737274,-0.4158572256565094,-0.040809523314237595,0.10380546748638153,0.0,0.0,2.0
-0.3757523000240326,0.8699365258216858,0.22712627053260803,-0.41128453612327576,-0.03548501431941986,0.10649023950099945,0.0,0.0,3.0
-0.3733610510826111,0.8600813150405884,0.23541292548179626,-0.4379180073738098,-0.03181850165128708,0.07333043217658997,0.0,0.0,2.0
-0.3710518479347229,0.850402295589447,0.22766931354999542,-0.43011435866355896,-0.02860693447291851,0.06423136591911316,0.0,0.0,2.0
-0.3686811029911041,0.8415611982345581,0.23366045951843262,-0.39288416504859924,-0.025237679481506348,0.06738518178462982,0.0,0.0,3.0
-0.3662359118461609,0.8321226835250854,0.243001788854599,-0.41946718096733093,-0.02373771369457245,0.02999928966164589,0.0,0.0,1.0
-0.363879919052124,0.8220909237861633,0.23180651664733887,-0.4457996189594269,-0.01999342441558838,0.07488588988780975,0.0,0.0,2.0
-0.3614129424095154,0.8123970627784729,0.24244186282157898,-0.43078741431236267,-0.01579398475587368,0.08398878574371338,0.0,0.0,3.0
-0.3588535189628601,0.8020996451377869,0.2540452182292938,-0.4576452374458313,-0.01391909085214138,0.03749791160225868,0.0,0.0,2.0
-0.3562397062778473,0.7924548983573914,0.25928694009780884,-0.4286364018917084,-0.011846208944916725,0.04145755246281624,0.0,0.0,2.0
-0.35373300313949585,0.783227801322937,0.24910585582256317,-0.41008198261260986,-0.010305787436664104,0.03080836310982704,0.0,0.0,2.0
-0.35111474990844727,0.7741926908493042,0.2597723603248596,-0.40154969692230225,-0.00827441830188036,0.04062739014625549,0.0,0.0,3.0
-0.3484242558479309,0.7645593285560608,0.2688254714012146,-0.42815157771110535,-0.008055760525166988,0.004373238421976566,0.0,0.0,1.0
