pos x,pos y,vel x,vel y,angle,angleVel,contact_1,contact_2,action
-0.00740470876917243,1.4082057476043701,-0.7500235438346863,-0.12066403776407242,0.008586904034018517,0.16989150643348694,0.0,0.0,3.0
-0.014744949527084827,1.4049098491668701,-0.7408725023269653,-0.1465354710817337,0.01535066869109869,0.1352885663509369,0.0,0.0,3.0
-0.02202320098876953,1.4010238647460938,-0.7330585718154907,-0.1727754920721054,0.020536819472908974,0.10373274981975555,0.0,0.0,3.0
-0.029240798205137253,1.3965435028076172,-0.725456178188324,-0.1991853415966034,0.02419358864426613,0.07314179837703705,0.0,0.0,3.0
-0.03639946132898331,1.3914644718170166,-0.7180585861206055,-0.2257712334394455,0.026364270597696304,0.043417591601610184,0.0,0.0,3.0
-0.04347629472613335,1.3857795000076294,-0.7077959179878235,-0.25266438722610474,0.02647869475185871,0.0022886290680617094,0.0,0.0,3.0
-0.050493814051151276,1.3794949054718018,-0.7003630995750427,-0.27929192781448364,0.025103703141212463,-0.02750222012400627,0.0,0.0,3.0
-0.05743904039263725,1.3726072311401367,-0.6913059949874878,-0.3060689866542816,0.02191559411585331,-0.06376826018095016,0.0,0.0,3.0
-0.06428899616003036,1.3651200532913208,-0.6793479323387146,-0.33269184827804565,0.016333097591996193,-0.11166028678417206,0.0,0.0,3.0
-0.07106570899486542,1.3570473194122314,-0.6701623797416687,-0.3587273359298706,0.008910587057471275,-0.1484638750553131,0.0,0.0,3.0
-0.07776069641113281,1.3483738899230957,-0.6599274277687073,-0.38545453548431396,-0.0005575845134444535,-0.18938076496124268,0.0,0.0,3.0
-0.08435793220996857,1.3390989303588867,-0.6476726531982422,-0.4122689664363861,-0.012474769726395607,-0.23836520314216614,0.0,0.0,3.0
-0.09088945388793945,1.3292360305786133,-0.6394446492195129,-0.43852534890174866,-0.02602916955947876,-0.2711130678653717,0.0,0.0,3.0
-0.09735631942749023,1.3187693357467651,-0.631349503993988,-0.4655199944972992,-0.041198261082172394,-0.30340975522994995,0.0,0.0,1.0
-0.10389003902673721,1.3076976537704468,-0.6397548317909241,-0.49250510334968567,-0.05467721074819565,-0.2696036696434021,0.0,0.0,2.0
-0.11036691814661026,1.2975897789001465,-0.6340674161911011,-0.44979390501976013,-0.06815846264362335,-0.26964980363845825,0.0,0.0,1.0
-0.1169244796037674,1.2868847846984863,-0.6442152261734009,-0.4763405919075012,-0.07959714531898499,-0.2287941724061966,0.0,0.0,2.0
-0.12330837547779083,1.2762036323547363,-0.6275290846824646,-0.47532814741134644,-0.09038086980581284,-0.21569399535655975,0.0,0.0,2.0
-0.12947244942188263,1.2656311988830566,-0.6063821315765381,-0.4705260097980499,-0.10033974051475525,-0.19919545948505402,0.0,0.0,2.0
-0.13550138473510742,1.2551140785217285,-0.5932986736297607,-0.4680963456630707,-0.10987536609172821,-0.19072966277599335,0.0,0.0,2.0
-0.14158658683300018,1.2451223134994507,-0.5982840657234192,-0.4448584318161011,-0.12005624920129776,-0.20363643765449524,0.0,0.0,2.0
-0.14740094542503357,1.235903263092041,-0.57195645570755,-0.4105244278907776,-0.12949542701244354,-0.18880026042461395,0.0,0.0,2.0
-0.15294389426708221,1.2271069288253784,-0.5456764101982117,-0.39171990752220154,-0.13809442520141602,-0.17199523746967316,0.0,0.0,2.0
-0.1583503782749176,1.2186239957809448,-0.532275915145874,-0.3778109550476074,-0.14645612239837646,-0.16724893450737,0.0,0.0,2.0
-0.1636343002319336,1.210307240486145,-0.520237922668457,-0.3704518973827362,-0.15460126101970673,-0.16291746497154236,0.0,0.0,2.0
-0.16879376769065857,1.2027376890182495,-0.5081092119216919,-0.33725348114967346,-0.16244614124298096,-0.15690717101097107,0.0,0.0,2.0
-0.17382565140724182,1.1960365772247314,-0.4948195517063141,-0.29876604676246643,-0.17081259191036224,-0.16732923686504364,0.0,0.0,2.0
-0.17862491309642792,1.1902004480361938,-0.4718713164329529,-0.26033294200897217,-0.17888697981834412,-0.16148778796195984,0.0,0.0,2.0
-0.18333931267261505,1.1845749616622925,-0.4633404612541199,-0.2510184645652771,-0.18701976537704468,-0.16265568137168884,0.0,0.0,2.0
-0.18810291588306427,1.1793594360351562,-0.4674610495567322,-0.23295089602470398,-0.1959535926580429,-0.17867696285247803,0.0,0.0,2.0
-0.19259491562843323,1.174770474433899,-0.4408251643180847,-0.20508264005184174,-0.20439253747463226,-0.16877900063991547,0.0,0.0,2.0
-0.19701728224754333,1.1711297035217285,-0.4332262873649597,-0.16308675706386566,-0.21348395943641663,-0.18182852864265442,0.0,0.0,3.0
-0.20135898888111115,1.1668754816055298,-0.42315277457237244,-0.19070123136043549,-0.22462239861488342,-0.22276881337165833,0.0,0.0,2.0
-0.20550933480262756,1.162930965423584,-0.4042775630950928,-0.17698462307453156,-0.23552249372005463,-0.21800199151039124,0.0,0.0,2.0
-0.2092871218919754,1.159615397453308,-0.36783409118652344,-0.1489867866039276,-0.2456316351890564,-0.20218273997306824,0.0,0.0,2.0
-0.21300582587718964,1.1571600437164307,-0.36113160848617554,-0.11095868796110153,-0.25656941533088684,-0.21875548362731934,0.0,0.0,2.0
-0.21635480225086212,1.1553242206573486,-0.32487568259239197,-0.0833766981959343,-0.26680758595466614,-0.2047635018825531,0.0,0.0,2.0
-0.2195846140384674,1.1542298793792725,-0.3124426305294037,-0.050593093037605286,-0.2776039242744446,-0.2159270942211151,0.0,0.0,2.0
-0.22268299758434296,1.1531565189361572,-0.2993904948234558,-0.049727167934179306,-0.28834018111228943,-0.21472540497779846,0.0,0.0,2.0
-0.22551503777503967,1.1523711681365967,-0.27317336201667786,-0.03692619875073433,-0.2986736595630646,-0.2066694051027298,0.0,0.0,2.0
-0.2280958592891693,1.1515100002288818,-0.2487097531557083,-0.04023220017552376,-0.3083731532096863,-0.19399002194404602,0.0,0.0,2.0
-0.2305053174495697,1.1510322093963623,-0.23143959045410156,-0.0232910867780447,-0.3182371258735657,-0.19727930426597595,0.0,0.0,2.0
-0.23266109824180603,1.1511963605880737,-0.20602428913116455,0.0051716398447752,-0.32818490266799927,-0.19895541667938232,0.0,0.0,2.0
-0.23452210426330566,1.1521832942962646,-0.17645993828773499,0.04163582623004913,-0.33825525641441345,-0.20140719413757324,0.0,0.0,0.0
-0.23638281226158142,1.152571439743042,-0.17646412551403046,0.014961089007556438,-0.3483255207538605,-0.20140576362609863,0.0,0.0,2.0
-0.23825760185718536,1.1529942750930786,-0.1772134155035019,0.0162702277302742,-0.3591243028640747,-0.21597576141357422,0.0,0.0,2.0
-0.24010758101940155,1.1536219120025635,-0.17404992878437042,0.02511967159807682,-0.3706871569156647,-0.23125667870044708,0.0,0.0,2.0
-0.24166984856128693,1.154646396636963,-0.1454496681690216,0.042701467871665955,-0.3821229040622711,-0.22871530055999756,0.0,0.0,0.0
-0.24323168396949768,1.1550724506378174,-0.1454557478427887,0.016024556010961533,-0.3935585618019104,-0.2287132441997528,0.0,0.0,2.0
-0.24447588622570038,1.1561986207962036,-0.11357281357049942,0.047000329941511154,-0.40517377853393555,-0.2323041707277298,0.0,0.0,0.0
-0.24571958184242249,1.156726360321045,-0.11357945203781128,0.020323194563388824,-0.41678887605667114,-0.23230202496051788,0.0,0.0,2.0
-0.246784970164299,1.157126545906067,-0.0959555059671402,0.014627070166170597,-0.4282398223876953,-0.22901876270771027,0.0,0.0,2.0
-0.24761715531349182,1.1578847169876099,-0.07246267795562744,0.030379686504602432,-0.4399354159832001,-0.2339116632938385,0.0,0.0,0.0
-0.24844880402088165,1.1580445766448975,-0.07246995717287064,0.00370256626047194,-0.4516308903694153,-0.2339095175266266,0.0,0.0,2.0
-0.24879631400108337,1.1585756540298462,-0.024758663028478622,0.020337210968136787,-0.46261900663375854,-0.21976236999034882,0.0,0.0,1.0
-0.24922695755958557,1.158576488494873,-0.03543553501367569,-0.002524336101487279,-0.4710516631603241,-0.16865256428718567,0.0,0.0,1.0
-0.24973860383033752,1.1580371856689453,-0.045737870037555695,-0.025822672992944717,-0.4770682752132416,-0.12033237516880035,0.0,0.0,2.0
-0.249881312251091,1.1579921245574951,-0.008832426741719246,-0.003885210258886218,-0.4831181764602661,-0.12099802494049072,0.0,0.0,1.0
-0.25007981061935425,1.1574008464813232,-0.016030576080083847,-0.027633855119347572,-0.4873790740966797,-0.08521870523691177,0.0,0.0,1.0
-0.25033774971961975,1.1562429666519165,-0.023477863520383835,-0.05227779224514961,-0.4899648427963257,-0.05171549320220947,0.0,0.0,1.0
-0.25064849853515625,1.1545406579971313,-0.030327731743454933,-0.0759200006723404,-0.49080216884613037,-0.016746724024415016,0.0,0.0,1.0
-0.2510257363319397,1.1523041725158691,-0.03889980912208557,-0.09897681325674057,-0.48948240280151367,0.026395220309495926,0.0,0.0,1.0
-0.251483678817749,1.1495294570922852,-0.04915701597929001,-0.12214247137308121,-0.48572808504104614,0.07508651912212372,0.0,0.0,2.0
-0.25188717246055603,1.1468158960342407,-0.04306434467434883,-0.11964739114046097,-0.4827025532722473,0.06050986796617508,0.0,0.0,2.0
-0.2519730031490326,1.144658088684082,-0.010983058251440525,-0.09506132453680038,-0.48002928495407104,0.05346537381410599,0.0,0.0,1.0
-0.2521282136440277,1.1419588327407837,-0.019862348213791847,-0.11847182363271713,-0.47521066665649414,0.09637228399515152,0.0,0.0,1.0
-0.25235700607299805,1.1387197971343994,-0.029249265789985657,-0.1417914479970932,-0.46814194321632385,0.1413746476173401,0.0,0.0,1.0
-0.2526562213897705,1.1349303722381592,-0.03821311146020889,-0.1656503528356552,-0.45899271965026855,0.1829843670129776,0.0,0.0,2.0
-0.2528173327445984,1.1312127113342285,-0.024130163714289665,-0.1626206338405609,-0.45018815994262695,0.17609135806560516,0.0,0.0,1.0
-0.2530437409877777,1.1269547939300537,-0.03255762532353401,-0.1860826015472412,-0.4393368065357208,0.21702702343463898,0.0,0.0,2.0
-0.2529732286930084,1.1228128671646118,-0.0031928587704896927,-0.18090911209583282,-0.4281817376613617,0.22310137748718262,0.0,0.0,1.0
-0.25298887491226196,1.118131399154663,-0.01420561783015728,-0.20427562296390533,-0.4145025610923767,0.27358347177505493,0.0,0.0,3.0
-0.25294533371925354,1.1128135919570923,-0.006786196026951075,-0.23312857747077942,-0.4025157392024994,0.23973648250102997,0.0,0.0,1.0
-0.2529714107513428,1.10693359375,-0.015620025806128979,-0.25770479440689087,-0.3885919749736786,0.27847546339035034,0.0,0.0,2.0
-0.252896249294281,1.1009612083435059,-0.005422264337539673,-0.26196524500846863,-0.3748281002044678,0.2752772271633148,0.0,0.0,2.0
-0.25242942571640015,1.095743179321289,0.03352830186486244,-0.22852596640586853,-0.36090707778930664,0.27842065691947937,0.0,0.0,3.0
-0.2518795430660248,1.0898833274841309,0.04394305497407913,-0.2577018439769745,-0.3492718040943146,0.2327057421207428,0.0,0.0,1.0
-0.251391738653183,1.0834615230560303,0.036010004580020905,-0.28237244486808777,-0.33588549494743347,0.26772603392601013,0.0,0.0,3.0
-0.25081998109817505,1.0764060020446777,0.04650064930319786,-0.31113067269325256,-0.32474270462989807,0.22285589575767517,0.0,0.0,1.0
-0.2503201365470886,1.068799376487732,0.037286970764398575,-0.3352757394313812,-0.31154686212539673,0.2639167606830597,0.0,0.0,3.0
-0.24976058304309845,1.0605578422546387,0.04482420161366463,-0.3639439344406128,-0.30001962184906006,0.2305450439453125,0.0,0.0,2.0
-0.24909281730651855,1.0529980659484863,0.056276410818099976,-0.333862841129303,-0.2891814708709717,0.216762512922287,0.0,0.0,1.0
-0.24851378798484802,1.0448898077011108,0.04496872052550316,-0.3578592538833618,-0.27588483691215515,0.2659319043159485,0.0,0.0,3.0
-0.24784894287586212,1.036134958267212,0.055806852877140045,-0.3871234357357025,-0.26494407653808594,0.21881511807441711,0.0,0.0,2.0
-0.2469383180141449,1.0282615423202515,0.08045053482055664,-0.3480454087257385,-0.25410196185112,0.21684250235557556,0.0,0.0,1.0
-0.24610170722007751,1.0198231935501099,0.07104729861021042,-0.3728969991207123,-0.24126467108726501,0.2567461133003235,0.0,0.0,3.0
-0.24517817795276642,1.0107660293579102,0.0819089263677597,-0.4008682072162628,-0.2306569665670395,0.2121540606021881,0.0,0.0,1.0
-0.2443408966064453,1.0011310577392578,0.07105167955160141,-0.4262916147708893,-0.21782532334327698,0.2566327452659607,0.0,0.0,3.0
-0.24341139197349548,0.9908781051635742,0.0825793594121933,-0.4541909992694855,-0.2073480486869812,0.2095453441143036,0.0,0.0,2.0
-0.24223680794239044,0.9805530905723572,0.10629595816135406,-0.4573626220226288,-0.19609716534614563,0.2250175029039383,0.0,0.0,3.0
-0.24099402129650116,0.9696084260940552,0.11484354734420776,-0.4852074980735779,-0.18661192059516907,0.1897048056125641,0.0,0.0,2.0
-0.23977932333946228,0.9592213034629822,0.11280752718448639,-0.46058911085128784,-0.1779155135154724,0.17392794787883759,0.0,0.0,2.0
-0.23855972290039062,0.9489229321479797,0.11363695561885834,-0.4567268192768097,-0.1695723831653595,0.16686251759529114,0.0,0.0,2.0
-0.23733195662498474,0.9388040900230408,0.11480957269668579,-0.448846697807312,-0.1615971177816391,0.15950539708137512,0.0,0.0,1.0
-0.23618808388710022,0.9280993938446045,0.1042749434709549,-0.4746966063976288,-0.15149010717868805,0.20214025676250458,0.0,0.0,2.0
-0.23480764031410217,0.9176947474479675,0.12725557386875153,-0.4613760709762573,-0.14072033762931824,0.21539537608623505,0.0,0.0,3.0
-0.23335404694080353,0.9066792130470276,0.13641223311424255,-0.48875898122787476,-0.13180404901504517,0.1783256083726883,0.0,0.0,2.0
-0.23170800507068634,0.8958737254142761,0.15508821606636047,-0.4794348478317261,-0.12233395874500275,0.18940183520317078,0.0,0.0,3.0
-0.22997108101844788,0.8844483494758606,0.16650132834911346,-0.507219672203064,-0.11518396437168121,0.1429998129606247,0.0,0.0,2.0
-0.22799763083457947,0.8735349774360657,0.18944889307022095,-0.4844445586204529,-0.10734175890684128,0.1568443477153778,0.0,0.0,3.0
-0.22592630982398987,0.8620047569274902,0.2017364203929901,-0.5120794177055359,-0.10198527574539185,0.1071297898888588,0.0,0.0,2.0
-0.2238449603319168,0.8509052991867065,0.2030135691165924,-0.4929642379283905,-0.09690596908330917,0.10158617794513702,0.0,0.0,1.0
-0.22183290123939514,0.8392141461372375,0.19431941211223602,-0.5191741585731506,-0.09007707238197327,0.13657814264297485,0.0,0.0,2.0
-0.21978148818016052,0.8274567723274231,0.19821211695671082,-0.5221485495567322,-0.08321508765220642,0.13723956048488617,0.0,0.0,2.0
-0.21775969862937927,0.815793514251709,0.1955668181180954,-0.5180198550224304,-0.0766669511795044,0.13096262514591217,0.0,0.0,2.0
-0.21584029495716095,0.8043063879013062,0.18599049746990204,-0.5102497935295105,-0.07077345252037048,0.11786993592977524,0.0,0.0,2.0
-0.21374578773975372,0.7928817272186279,0.20282471179962158,-0.5074657201766968,-0.06421709060668945,0.13112719357013702,0.0,0.0,2.0
-0.21171708405017853,0.7819836735725403,0.19677232205867767,-0.48410138487815857,-0.058186858892440796,0.12060470879077911,0.0,0.0,2.0
-0.20976905524730682,0.7719576358795166,0.18934723734855652,-0.4454037845134735,-0.05279216542840004,0.10789363086223602,0.0,0.0,3.0
-0.2077268660068512,0.7613123655319214,0.2011706531047821,-0.4730161130428314,-0.04978086054325104,0.060226231813430786,0.0,0.0,1.0
-0.20574530959129333,0.7500748038291931,0.19355885684490204,-0.4993022084236145,-0.04523994401097298,0.09081844985485077,0.0,0.0,2.0
-0.2036069929599762,0.7395764589309692,0.20869052410125732,-0.4664461314678192,-0.04016156122088432,0.10156766325235367,0.0,0.0,2.0
-0.20156297087669373,0.729191780090332,0.19978776574134827,-0.46142417192459106,-0.035606883466243744,0.09109373390674591,0.0,0.0,2.0
-0.19931039214134216,0.7194786071777344,0.21982057392597198,-0.43157440423965454,-0.03022751398384571,0.10758727788925171,0.0,0.0,3.0
-0.19698353111743927,0.7091742157936096,0.2291223555803299,-0.45791178941726685,-0.0267062708735466,0.07042475789785385,0.0,0.0,2.0
-0.19458504021167755,0.6995446085929871,0.23604992032051086,-0.4279212951660156,-0.022959036752581596,0.07494467496871948,0.0,0.0,1.0
-0.19228343665599823,0.6893250346183777,0.2238798886537552,-0.45412060618400574,-0.016771225258708,0.12375650554895401,0.0,0.0,3.0
-0.18989543616771698,0.6784990429878235,0.23474331200122833,-0.48110708594322205,-0.01276065967977047,0.08021144568920135,0.0,0.0,2.0
-0.187395378947258,0.6685479879379272,0.2454799860715866,-0.44223612546920776,-0.008290061727166176,0.08941184729337692,0.0,0.0,3.0
-0.18482932448387146,0.6579872369766235,0.2537519335746765,-0.4693560302257538,-0.005477382335811853,0.05625377967953682,0.0,0.0,2.0
-0.18242701888084412,0.6479650735855103,0.23816318809986115,-0.44542500376701355,-0.0034404408652335405,0.04073874652385712,0.0,0.0,1.0
-0.18008509278297424,0.6373503804206848,0.2306022197008133,-0.47176292538642883,0.00011106895544799045,0.07103008031845093,0.0,0.0,2.0
-0.1776486337184906,0.6276223063468933,0.23960426449775696,-0.43236425518989563,0.004099931567907333,0.07977716624736786,0.0,0.0,3.0
-0.17512178421020508,0.6172911524772644,0.2509464621543884,-0.45916947722435,0.005817626602947712,0.03435404598712921,0.0,0.0,2.0
-0.1724230796098709,0.6069210171699524,0.267312228679657,-0.46090167760849,0.008339500054717064,0.05043758079409599,0.0,0.0,2.0
-0.1696351021528244,0.5973420739173889,0.2757885158061981,-0.4257490336894989,0.011310175061225891,0.05941367149353027,0.0,0.0,2.0
-0.16667881608009338,0.5887190699577332,0.29177820682525635,-0.3832799196243286,0.015113316476345062,0.07606295496225357,0.0,0.0,0.0
-0.16372251510620117,0.5794962048530579,0.29177823662757874,-0.40994781255722046,0.018916470929980278,0.0760628804564476,0.0,0.0,2.0
-0.1609484702348709,0.5702071189880371,0.2743683457374573,-0.41288891434669495,0.02190835028886795,0.05983780696988106,0.0,0.0,2.0
-0.15805263817310333,0.5616395473480225,0.28589051961898804,-0.38083940744400024,0.02555263787508011,0.07288570702075958,0.0,0.0,0.0
-0.15515680611133575,0.5524721145629883,0.2858905792236328,-0.4075072407722473,0.02919691614806652,0.07288564741611481,0.0,0.0,2.0
-0.15215368568897247,0.5442322492599487,0.2959820628166199,-0.3663061559200287,0.03347473591566086,0.0855562835931778,0.0,0.0,0.0
-0.1491505652666092,0.535392701625824,0.29598215222358704,-0.3929743468761444,0.03775253891944885,0.08555617928504944,0.0,0.0,2.0
-0.14611101150512695,0.5265812277793884,0.2993772625923157,-0.391741544008255,0.04227155074477196,0.09038028866052628,0.0,0.0,2.0
-0.14316806197166443,0.5178454518318176,0.29007717967033386,-0.38838082551956177,0.04643246531486511,0.08321847021579742,0.0,0.0,2.0
-0.14041796326637268,0.5098393559455872,0.2715083360671997,-0.3559388220310211,0.04989387094974518,0.06922808289527893,0.0,0.0,3.0
-0.13757725059986115,0.5012425184249878,0.28287583589553833,-0.38212087750434875,0.05107251554727554,0.023572880774736404,0.0,0.0,2.0
-0.13489016890525818,0.49266430735588074,0.26813581585884094,-0.3812771439552307,0.051639676094055176,0.011343240737915039,0.0,0.0,2.0
-0.13209247589111328,0.4847654402256012,0.27847421169281006,-0.35110434889793396,0.052921123802661896,0.02562887594103813,0.0,0.0,2.0
-0.1293451339006424,0.47738802433013916,0.2734820544719696,-0.327930748462677,0.05415280908346176,0.02463415451347828,0.0,0.0,0.0
-0.12659788131713867,0.4694105386734009,0.2734820544719696,-0.3545975387096405,0.05538451671600342,0.024634184315800667,0.0,0.0,2.0
-0.1237918883562088,0.46214935183525085,0.2788415551185608,-0.3227866590023041,0.05711138993501663,0.03453730791807175,0.0,0.0,0.0
-0.1209859848022461,0.454288125038147,0.2788415551185608,-0.3494535982608795,0.058838240802288055,0.03453727439045906,0.0,0.0,2.0
-0.11826171725988388,0.4463547170162201,0.270964652299881,-0.35265275835990906,0.0602843202650547,0.028921794146299362,0.0,0.0,2.0
-0.11539411544799805,0.4384104311466217,0.28452354669570923,-0.3531704246997833,0.06250137090682983,0.04434080049395561,0.0,0.0,2.0
-0.11269636452198029,0.43137139081954956,0.2680298686027527,-0.3129211664199829,0.06422458589076996,0.034464336931705475,0.0,0.0,0.0
-0.10999870300292969,0.4237323999404907,0.2680298686027527,-0.33958813548088074,0.06594780087471008,0.03446435183286667,0.0,0.0,2.0
